-80.320	-0.989	-0.140	-0.095	1480	22
-80.146	-0.994	-0.140	-0.102	1476	28
-80.539	-0.989	-0.133	-0.098	1479	35
-80.229	-0.985	-0.129	-0.110	1488	41
-79.889	-0.981	-0.131	-0.116	1491	49
-80.263	-0.977	-0.127	-0.109	1491	55
-80.423	-0.972	-0.128	-0.103	1490	62
-80.601	-0.969	-0.128	-0.097	1494	68
-80.621	-0.968	-0.120	-0.105	1487	75
-80.637	-0.971	-0.122	-0.104	1484	81
-80.611	-0.975	-0.120	-0.107	1487	89
-80.865	-0.983	-0.112	-0.111	1493	95
-80.412	-0.989	-0.119	-0.117	1499	102
-80.504	-0.985	-0.125	-0.107	1497	109
-81.253	-0.988	-0.118	-0.096	1498	115
-80.708	-0.978	-0.121	-0.104	1494	122
-81.121	-0.980	-0.117	-0.099	1498	129
-81.044	-0.983	-0.116	-0.103	1501	136
-81.358	-0.983	-0.112	-0.099	1496	142
-80.674	-0.985	-0.126	-0.102	1502	149
-80.801	-0.996	-0.122	-0.105	1506	155
-80.696	-0.997	-0.123	-0.107	1501	162
-80.931	-0.994	-0.121	-0.103	1506	169
-80.983	-0.991	-0.120	-0.102	1509	176
-80.764	-0.995	-0.126	-0.102	1504	183
-81.055	-0.997	-0.122	-0.099	1507	189
-80.644	-1.001	-0.126	-0.106	1508	196
-80.750	-0.995	-0.123	-0.105	1504	202
-80.381	-0.993	-0.128	-0.109	1502	209
-80.084	-0.985	-0.129	-0.114	1502	216
-80.040	-0.979	-0.125	-0.118	1505	223
-80.227	-0.971	-0.114	-0.122	1511	230
-79.815	-0.973	-0.121	-0.126	1512	236
-80.161	-0.979	-0.121	-0.119	1510	243
-79.813	-0.976	-0.134	-0.113	1512	249
-80.086	-0.982	-0.130	-0.112	1507	257
-80.686	-0.976	-0.126	-0.099	1511	263
-81.606	-0.976	-0.116	-0.085	1511	270
-82.141	-0.970	-0.109	-0.077	1504	276
-82.384	-0.975	-0.110	-0.069	1505	283
-82.846	-0.978	-0.103	-0.067	1517	290
-82.763	-0.983	-0.103	-0.071	1507	296
-82.387	-0.991	-0.108	-0.076	1507	304
-82.402	-0.994	-0.106	-0.079	1503	310
-81.646	-0.994	-0.122	-0.080	1503	317
-82.402	-0.993	-0.108	-0.076	1504	323
-82.270	-0.999	-0.102	-0.090	1507	330
-82.558	-0.990	-0.097	-0.086	1507	336
-82.513	-0.988	-0.089	-0.095	1506	344
-82.073	-0.978	-0.100	-0.093	1507	351
-82.089	-0.973	-0.104	-0.087	1511	357
-81.971	-0.976	-0.113	-0.078	1522	364
-81.178	-0.976	-0.126	-0.084	1519	370
-80.809	-0.985	-0.137	-0.082	1515	377
-81.063	-0.992	-0.131	-0.085	1517	384
-81.234	-0.994	-0.127	-0.086	1517	391
-81.735	-0.998	-0.118	-0.084	1516	397
-81.189	-0.996	-0.127	-0.088	1512	404
-81.055	-0.999	-0.127	-0.093	1514	411
-80.659	-0.993	-0.134	-0.094	1509	417
-80.376	-0.992	-0.138	-0.097	1507	424
-80.509	-0.988	-0.137	-0.093	1507	431
-80.436	-0.984	-0.135	-0.097	1507	438
-80.002	-0.980	-0.138	-0.104	1508	444
-80.036	-0.979	-0.137	-0.104	1504	451
-80.206	-0.982	-0.133	-0.105	1504	457
-80.050	-0.975	-0.129	-0.112	1504	464
-79.814	-0.974	-0.136	-0.110	1512	472
-80.258	-0.959	-0.132	-0.099	1501	478
-80.395	-0.965	-0.131	-0.098	1499	485
-80.158	-0.964	-0.136	-0.098	1496	491
-80.446	-0.973	-0.133	-0.096	1499	498
-80.470	-0.978	-0.129	-0.102	1494	504
-80.601	-0.981	-0.120	-0.109	1497	512
-80.606	-0.985	-0.118	-0.112	1495	518
-80.858	-0.988	-0.118	-0.106	1492	525
-81.308	-0.989	-0.107	-0.106	1491	532
-81.136	-0.992	-0.112	-0.106	1504	538
-80.686	-0.981	-0.110	-0.117	1492	545
-80.576	-0.990	-0.115	-0.117	1491	551
-80.459	-0.983	-0.110	-0.123	1488	559
-80.443	-0.980	-0.114	-0.119	1483	565
-80.684	-0.977	-0.113	-0.113	1482	572
-80.476	-0.976	-0.114	-0.117	1478	578
-81.093	-0.970	-0.104	-0.110	1477	585
-80.929	-0.974	-0.106	-0.113	1475	592
-80.754	-0.977	-0.107	-0.117	1478	599
-81.073	-0.977	-0.104	-0.112	1476	606
-81.314	-0.987	-0.094	-0.118	1477	612
-81.016	-0.987	-0.091	-0.127	1484	619
-81.475	-0.990	-0.083	-0.123	1491	625
-81.796	-0.980	-0.071	-0.122	1479	632
-81.678	-0.986	-0.070	-0.126	1476	638
-81.634	-0.985	-0.056	-0.134	1480	646
-81.537	-0.986	-0.051	-0.138	1484	653
-81.663	-0.993	-0.041	-0.140	1480	659
-81.236	-0.986	-0.037	-0.147	1475	666
-81.009	-0.980	-0.029	-0.152	1477	672
-81.417	-0.975	-0.027	-0.145	1477	679
-81.251	-0.979	-0.031	-0.147	1485	686
-81.553	-0.979	-0.023	-0.144	1477	693
-81.630	-0.976	-0.033	-0.140	1475	699
-82.076	-0.979	-0.041	-0.130	1476	706
-82.030	-0.988	-0.042	-0.132	1475	713
-82.199	-0.990	-0.053	-0.125	1480	719
-82.216	-0.999	-0.053	-0.126	1482	727
-82.419	-1.001	-0.062	-0.118	1482	733
-82.668	-1.001	-0.066	-0.110	1480	740
-81.806	-0.997	-0.077	-0.121	1480	746
-81.797	-0.988	-0.078	-0.119	1485	753
-81.826	-0.989	-0.069	-0.124	1492	759
-82.039	-0.988	-0.068	-0.120	1492	766
-82.628	-0.986	-0.053	-0.116	1490	774
-82.161	-0.985	-0.053	-0.125	1496	780
-81.693	-0.990	-0.050	-0.136	1490	787
-82.101	-0.986	-0.040	-0.131	1489	793
-82.017	-0.979	-0.038	-0.132	1487	800
-82.069	-0.976	-0.040	-0.130	1493	806
-82.520	-0.979	-0.040	-0.122	1496	814
-82.591	-0.979	-0.042	-0.120	1493	820
-82.404	-0.989	-0.057	-0.119	1494	827
-82.447	-0.988	-0.061	-0.116	1494	834
-82.486	-1.000	-0.072	-0.110	1497	840
-82.025	-1.000	-0.081	-0.114	1497	847
-81.962	-0.996	-0.091	-0.107	1495	854
-81.735	-0.994	-0.099	-0.105	1498	861
-81.660	-0.980	-0.098	-0.105	1499	867
-81.442	-0.982	-0.102	-0.107	1497	874
-81.079	-0.981	-0.105	-0.112	1494	880
-81.323	-0.975	-0.099	-0.111	1495	887
-81.307	-0.976	-0.095	-0.115	1504	894
-81.375	-0.979	-0.095	-0.114	1500	901
-81.364	-0.990	-0.092	-0.119	1505	908
-81.560	-0.998	-0.092	-0.116	1503	914
-81.663	-0.997	-0.086	-0.118	1504	921
-81.456	-0.999	-0.086	-0.123	1505	927
-81.302	-0.995	-0.087	-0.125	1503	934
-81.793	-0.980	-0.076	-0.119	1507	941
-81.287	-0.967	-0.081	-0.124	1506	948
-81.359	-0.968	-0.082	-0.122	1507	955
-81.209	-0.969	-0.091	-0.119	1502	961
-81.100	-0.973	-0.100	-0.115	1501	968
-80.470	-0.976	-0.111	-0.120	1503	974
-80.749	-0.985	-0.120	-0.106	1501	982
-80.707	-0.996	-0.117	-0.113	1499	988
-80.663	-0.996	-0.120	-0.111	1502	995
-80.740	-0.996	-0.119	-0.110	1503	1001
-81.032	-0.998	-0.108	-0.114	1503	1008
-81.591	-0.993	-0.096	-0.111	1502	1015
-81.198	-0.985	-0.089	-0.124	1511	1021
-81.524	-0.981	-0.082	-0.121	1506	1029
-81.750	-0.990	-0.077	-0.121	1506	1035
-82.005	-0.986	-0.058	-0.126	1509	1042
-82.512	-0.981	-0.052	-0.118	1512	1049
-82.879	-0.983	-0.050	-0.112	1507	1055
-82.783	-0.982	-0.047	-0.115	1507	1062
-82.856	-0.979	-0.045	-0.114	1509	1070
-82.283	-0.979	-0.052	-0.122	1509	1076
-82.231	-0.980	-0.055	-0.122	1509	1083
-81.952	-0.982	-0.064	-0.123	1515	1089
-81.876	-0.978	-0.074	-0.118	1513	1096
-82.071	-0.987	-0.082	-0.110	1509	1103
-82.505	-0.990	-0.079	-0.104	1514	1110
-82.284	-0.993	-0.081	-0.107	1509	1117
-82.179	-0.985	-0.081	-0.108	1506	1123
-82.003	-0.984	-0.082	-0.111	1508	1130
-81.924	-0.989	-0.074	-0.119	1512	1137
-81.404	-0.987	-0.083	-0.124	1507	1143
-81.484	-0.986	-0.086	-0.120	1512	1150
-82.101	-0.986	-0.072	-0.116	1513	1157
-81.830	-0.993	-0.084	-0.115	1516	1164
-81.897	-0.991	-0.077	-0.118	1509	1171
-81.896	-0.983	-0.070	-0.121	1508	1177
-81.974	-0.988	-0.072	-0.119	1508	1184
-81.410	-0.981	-0.073	-0.129	1511	1190
-81.840	-0.983	-0.072	-0.121	1511	1198
-81.719	-0.986	-0.080	-0.119	1508	1205
-81.814	-0.987	-0.074	-0.121	1510	1211
-81.342	-0.987	-0.085	-0.124	1513	1218
-81.552	-0.981	-0.084	-0.119	1513	1224
-81.528	-0.982	-0.085	-0.119	1512	1231
-81.685	-0.980	-0.081	-0.118	1509	1239
-81.569	-0.977	-0.089	-0.114	1509	1245
-81.569	-0.977	-0.089	-0.114	1511	1252
-81.602	-0.984	-0.086	-0.117	1511	1259
-81.391	-0.988	-0.092	-0.118	1508	1265
-81.605	-0.991	-0.079	-0.123	1505	1272
-81.730	-0.997	-0.078	-0.122	1504	1278
-81.734	-0.986	-0.078	-0.120	1504	1286
-81.545	-0.979	-0.071	-0.127	1505	1293
-81.775	-0.982	-0.067	-0.125	1508	1299
-82.025	-0.980	-0.068	-0.119	1509	1306
-81.738	-0.979	-0.069	-0.124	1507	1312
-81.925	-0.978	-0.069	-0.120	1507	1319
-81.967	-0.985	-0.068	-0.121	1510	1327
-82.249	-0.993	-0.067	-0.117	1511	1333
-82.191	-0.989	-0.068	-0.117	1518	1340
-82.289	-0.994	-0.074	-0.112	1511	1346
-82.520	-0.990	-0.073	-0.107	1506	1353
-82.046	-0.985	-0.072	-0.117	1508	1360
-81.553	-0.979	-0.086	-0.117	1509	1367
-81.787	-0.981	-0.078	-0.118	1512	1374
-81.471	-0.979	-0.086	-0.119	1504	1380
-81.402	-0.979	-0.092	-0.116	1501	1387
-81.254	-0.980	-0.094	-0.118	1515	1394
-80.636	-0.987	-0.105	-0.124	1504	1400
-80.762	-0.986	-0.107	-0.119	1508	1408
-81.109	-0.990	-0.104	-0.115	1501	1414
-81.257	-0.986	-0.099	-0.115	1502	1421
-81.341	-0.980	-0.101	-0.110	1503	1428
-81.358	-0.983	-0.099	-0.112	1502	1434
-81.778	-0.988	-0.092	-0.109	1502	1441
-81.711	-0.988	-0.089	-0.113	1503	1448
-81.823	-0.984	-0.082	-0.115	1500	1455
-82.073	-0.981	-0.070	-0.117	1499	1462
-81.955	-0.988	-0.071	-0.120	1504	1468
-81.786	-0.983	-0.065	-0.126	1498	1475
-81.619	-0.985	-0.059	-0.133	1503	1482
-81.668	-0.990	-0.063	-0.131	1500	1488
-81.680	-0.989	-0.060	-0.132	1504	1496
-81.869	-0.986	-0.055	-0.130	1502	1502
-82.029	-0.989	-0.058	-0.126	1500	1509
-82.302	-0.982	-0.057	-0.120	1500	1516
-82.308	-0.983	-0.063	-0.117	1497	1522
-82.713	-0.982	-0.063	-0.108	1500	1529
-81.750	-0.988	-0.081	-0.118	1498	1536
-81.631	-0.989	-0.085	-0.118	1499	1543
-81.382	-0.991	-0.093	-0.118	1500	1550
-81.274	-0.988	-0.099	-0.115	1499	1556
-81.284	-0.980	-0.098	-0.114	1501	1563
-81.659	-0.980	-0.086	-0.115	1503	1569
-81.544	-0.989	-0.089	-0.117	1501	1576
-81.892	-0.987	-0.082	-0.114	1502	1584
-82.364	-0.988	-0.070	-0.112	1500	1590
-81.867	-0.988	-0.069	-0.123	1499	1597
-81.847	-0.991	-0.067	-0.125	1502	1603
-82.320	-0.987	-0.068	-0.114	1505	1610
-82.415	-0.982	-0.065	-0.113	1502	1617
-82.483	-0.983	-0.062	-0.114	1505	1624
-82.196	-0.977	-0.066	-0.116	1501	1631
-82.242	-0.975	-0.059	-0.119	1501	1638
-81.596	-0.981	-0.064	-0.130	1508	1644
-81.773	-0.985	-0.068	-0.125	1499	1651
-81.788	-0.991	-0.082	-0.117	1499	1657
-81.333	-0.995	-0.086	-0.125	1501	1665
-81.521	-0.993	-0.088	-0.119	1507	1672
-81.441	-0.990	-0.091	-0.118	1500	1678
-81.090	-0.983	-0.089	-0.126	1496	1685
-81.138	-0.983	-0.093	-0.122	1495	1691
-81.607	-0.990	-0.086	-0.118	1496	1698
-81.343	-0.982	-0.079	-0.127	1500	1705
-81.564	-0.984	-0.080	-0.122	1498	1712
-81.612	-0.976	-0.082	-0.118	1505	1719
-81.511	-0.985	-0.082	-0.122	1508	1725
-81.566	-0.981	-0.089	-0.115	1503	1732
-83.274	-0.989	-0.103	-0.056	1500	1739
-84.578	-1.008	-0.073	-0.062	1500	1745
-82.054	-1.018	-0.074	-0.121	1507	1753
-81.165	-1.001	-0.081	-0.133	1504	1759
-81.275	-0.983	-0.075	-0.131	1499	1766
-81.919	-0.985	-0.068	-0.122	1496	1773
-81.681	-0.983	-0.069	-0.126	1496	1779
-80.643	-0.981	-0.078	-0.142	1499	1786
-79.683	-0.972	-0.077	-0.159	1506	1793
-80.417	-0.965	-0.073	-0.146	1503	1800
-81.385	-0.966	-0.067	-0.130	1500	1807
-82.245	-0.981	-0.069	-0.114	1498	1813
-81.855	-0.985	-0.084	-0.113	1496	1820
-81.890	-1.004	-0.090	-0.111	1498	1827
19.948	0.716	-0.192	1.963	1502	1833
-28.299	-1.081	0.177	-2.000	1498	1841
-65.240	-1.196	-0.057	-0.549	1499	1847
-77.573	-1.473	0.282	-0.160	1501	1854
-80.631	-1.286	0.111	-0.181	1503	1860
-86.271	-1.222	-0.073	-0.031	1502	1867
-78.656	-0.959	-0.192	-0.002	1508	1874
-69.018	-0.794	-0.261	-0.157	1501	1881
-57.467	-0.527	-0.197	-0.272	1499	1888
-71.423	-0.522	-0.106	-0.140	1502	1895
-87.307	-0.756	0.021	0.028	1503	1901
-89.303	-1.044	0.000	-0.013	1500	1908
-86.100	-1.192	-0.039	-0.071	1496	1914
-82.318	-1.207	-0.124	-0.105	1494	1922
-83.613	-1.137	-0.095	-0.085	1497	1928
-81.194	-1.060	-0.091	-0.137	1498	1935
-79.326	-0.990	-0.101	-0.157	1498	1942
-78.933	-0.918	-0.128	-0.126	1497	1948
-78.239	-0.909	-0.138	-0.130	1502	1955
-77.990	-0.912	-0.138	-0.137	1508	1963
-79.523	-0.937	-0.112	-0.132	1507	1969
-81.080	-0.971	-0.090	-0.123	1507	1976
-81.903	-1.002	-0.075	-0.121	1505	1982
-81.687	-1.022	-0.077	-0.128	1501	1989
-81.476	-1.016	-0.084	-0.127	1505	1996
-81.296	-0.996	-0.083	-0.128	1503	2002
-81.407	-0.985	-0.076	-0.128	1503	2010
-81.155	-0.980	-0.089	-0.124	1500	2016
-80.928	-0.979	-0.094	-0.125	1499	2023
-80.942	-0.984	-0.099	-0.122	1502	2030
-80.636	-0.980	-0.103	-0.125	1506	2036
-81.113	-0.984	-0.099	-0.118	1502	2043
-30.878	-1.231	-0.495	1.999	1499	2050
-25.160	-0.959	1.999	-0.415	1495	2057
-35.489	-0.740	-0.306	-0.992	1500	2064
-77.747	-1.491	-0.064	-0.317	1500	2070
-77.342	-1.663	0.373	-0.019	1501	2077
-82.400	-1.347	0.178	-0.026	1500	2083
-83.826	-1.120	0.079	-0.092	1496	2091
-83.317	-0.928	-0.033	-0.104	1494	2098
-75.547	-0.834	-0.070	-0.203	1493	2104
-76.014	-0.662	-0.030	-0.162	1495	2111
-83.354	-0.640	0.039	-0.063	1495	2117
-85.658	-0.716	-0.052	-0.017	1494	2124
-80.248	-0.890	-0.131	-0.079	1497	2131
-78.975	-1.021	-0.175	-0.095	1492	2138
-81.581	-1.089	-0.144	-0.073	1494	2145
-84.271	-1.129	-0.079	-0.081	1496	2151
-84.812	-1.110	-0.063	-0.079	1495	2158
-82.772	-1.047	-0.089	-0.099	1501	2165
-79.344	-0.996	-0.140	-0.125	1499	2171
-77.861	-0.952	-0.168	-0.117	1501	2179
-80.768	-0.938	-0.148	-0.035	1506	2185
-78.358	-0.952	-0.113	-0.160	1511	2192
-81.921	-0.954	-0.074	-0.113	1510	2199
-81.752	-0.992	-0.090	-0.112	1511	2205
-81.985	-1.023	-0.078	-0.121	1512	2212
-83.523	-1.028	-0.065	-0.097	1511	2219
-82.479	-1.011	-0.083	-0.104	1513	2226
-82.518	-0.996	-0.065	-0.113	1513	2233
-81.995	-0.992	-0.074	-0.118	1515	2239
-82.532	-0.986	-0.067	-0.110	1518	2246
-82.340	-0.983	-0.077	-0.107	1522	2253
-81.464	-0.977	-0.078	-0.124	1519	2259
-81.350	-0.975	-0.091	-0.117	1517	2267
-81.394	-0.966	-0.095	-0.111	1516	2273
-81.090	-0.965	-0.104	-0.109	1516	2280
-81.092	-0.974	-0.107	-0.108	1517	2287
-81.408	-0.987	-0.104	-0.107	1517	2293
-81.816	-0.994	-0.099	-0.104	1525	2300
-81.674	-1.001	-0.100	-0.107	1521	2307
-81.478	-0.996	-0.102	-0.109	1520	2314
-81.213	-0.993	-0.103	-0.114	1522	2321
-81.409	-0.979	-0.102	-0.107	1528	2327
-81.318	-0.975	-0.098	-0.112	1522	2334
-81.580	-0.978	-0.095	-0.109	1524	2340
-81.844	-0.984	-0.088	-0.110	1523	2348
-81.494	-0.983	-0.089	-0.117	1519	2355
-81.458	-0.988	-0.090	-0.118	1516	2361
-81.650	-0.989	-0.083	-0.119	1530	2368
-81.685	-0.986	-0.088	-0.114	1524	2374
-81.875	-0.989	-0.087	-0.111	1538	2381
-81.915	-0.981	-0.089	-0.107	1528	2388
-81.983	-0.991	-0.095	-0.103	1525	2395
-81.264	-0.993	-0.108	-0.107	1516	2402
-80.869	-0.988	-0.110	-0.114	1511	2408
-80.602	-0.990	-0.109	-0.122	1520	2415
-80.687	-0.992	-0.106	-0.123	1508	2422
-80.354	-0.984	-0.105	-0.130	1504	2428
-80.765	-0.984	-0.104	-0.122	1510	2436
-80.457	-0.984	-0.103	-0.130	1512	2442
-80.850	-0.980	-0.103	-0.120	1506	2449
-80.668	-0.978	-0.092	-0.132	1513	2456
-80.928	-0.973	-0.091	-0.126	1500	2462
-81.506	-0.971	-0.084	-0.118	1495	2469
-81.313	-0.979	-0.082	-0.125	1497	2476
-81.081	-0.979	-0.091	-0.124	1502	2483
-81.181	-0.983	-0.089	-0.124	1495	2490
-81.006	-0.980	-0.101	-0.118	1486	2496
-80.413	-0.978	-0.113	-0.120	1490	2503
-80.337	-0.981	-0.118	-0.118	1501	2509
-80.299	-0.978	-0.118	-0.118	1490	2516
-80.834	-0.984	-0.111	-0.113	1483	2524
-81.031	-0.984	-0.109	-0.110	1483	2530
-81.277	-0.981	-0.104	-0.109	1478	2537
-81.282	-0.984	-0.099	-0.114	1476	2543
-81.122	-0.985	-0.094	-0.122	1483	2550
-81.361	-0.986	-0.087	-0.122	1488	2557
-81.491	-0.977	-0.086	-0.118	1483	2564
-81.283	-0.983	-0.090	-0.121	1477	2571
-81.236	-0.983	-0.094	-0.119	1490	2578
-80.783	-0.977	-0.099	-0.124	1482	2584
-80.551	-0.982	-0.101	-0.129	1483	2591
-80.708	-0.984	-0.102	-0.125	1486	2597
-80.525	-0.982	-0.103	-0.128	1485	2605
-80.697	-0.981	-0.099	-0.127	1484	2612
-81.158	-0.987	-0.096	-0.120	1492	2618
-81.210	-0.985	-0.094	-0.120	1486	2625
-82.095	-0.989	-0.079	-0.112	1493	2631
-81.681	-0.989	-0.082	-0.119	1484	2638
-81.621	-0.993	-0.079	-0.123	1482	2646
-81.884	-0.986	-0.082	-0.114	1486	2652
-81.888	-0.985	-0.083	-0.113	1485	2659
-81.256	-0.984	-0.084	-0.126	1483	2665
-81.199	-0.981	-0.085	-0.126	1485	2672
-80.842	-0.970	-0.090	-0.128	1485	2679
-80.688	-0.976	-0.095	-0.129	1494	2685
-80.993	-0.978	-0.097	-0.121	1491	2693
-80.782	-0.979	-0.102	-0.122	1495	2699
-80.852	-0.985	-0.103	-0.121	1504	2706
-80.717	-0.992	-0.104	-0.124	1499	2713
-80.441	-0.995	-0.109	-0.127	1496	2719
-80.505	-0.996	-0.112	-0.123	1487	2726
-80.597	-0.985	-0.109	-0.121	1490	2734
-80.784	-0.988	-0.108	-0.118	1502	2740
-80.988	-0.984	-0.107	-0.113	1506	2747
-80.989	-0.976	-0.111	-0.107	1510	2753
-80.910	-0.976	-0.108	-0.112	1510	2760
-81.028	-0.978	-0.102	-0.116	1527	2767
-81.087	-0.981	-0.099	-0.118	1524	2774
-81.580	-0.988	-0.094	-0.112	1517	2781
-81.382	-0.989	-0.095	-0.116	1512	2787
-81.531	-0.990	-0.097	-0.111	1521	2794
-81.452	-0.989	-0.093	-0.116	1506	2801
-81.124	-0.988	-0.102	-0.116	1509	2807
-81.269	-0.989	-0.106	-0.108	1502	2814
-81.042	-0.987	-0.104	-0.116	1530	2821
-81.054	-0.990	-0.096	-0.123	1525	2828
-81.441	-0.986	-0.090	-0.118	1518	2835
-81.556	-0.983	-0.080	-0.122	1514	2841
-81.370	-0.975	-0.085	-0.121	1533	2848
-81.730	-0.976	-0.084	-0.114	1553	2854
-81.995	-0.975	-0.074	-0.115	1572	2862
-82.373	-0.982	-0.063	-0.115	1540	2869
-82.140	-0.986	-0.069	-0.117	1534	2875
-82.466	-0.988	-0.063	-0.114	1544	2882
-83.023	-0.985	-0.051	-0.109	1581	2888
-82.733	-0.993	-0.043	-0.119	1572	2895
-83.129	-0.989	-0.037	-0.113	1571	2903
-83.391	-0.994	-0.036	-0.109	1571	2909
-83.120	-0.975	-0.023	-0.115	1635	2916
-82.989	-0.979	-0.031	-0.116	1603	2923
-82.545	-0.979	-0.039	-0.122	1605	2929
-81.885	-0.983	-0.042	-0.134	1600	2936
-81.831	-0.983	-0.048	-0.133	1599	2942
-81.677	-0.989	-0.053	-0.135	1599	2950
-81.784	-0.995	-0.050	-0.135	1625	2957
-82.329	-0.996	-0.056	-0.122	1625	2963
-82.723	-0.998	-0.065	-0.109	1660	2970
-82.805	-0.991	-0.063	-0.108	1639	2976
-83.331	-0.979	-0.047	-0.104	1646	2983
-82.785	-0.984	-0.033	-0.120	1643	2991
-81.879	-0.982	-0.021	-0.139	1654	2997
-81.921	-0.980	-0.012	-0.139	1625	3004
-81.813	-0.975	-0.013	-0.140	1623	3010
-82.108	-0.988	-0.009	-0.137	1620	3017
-82.390	-0.980	-0.006	-0.131	1617	3024
-82.579	-0.982	-0.003	-0.128	1632	3031
-82.697	-0.976	-0.003	-0.125	1633	3038
-82.413	-0.982	0.001	-0.131	1625	3044
-82.770	-0.993	-0.002	-0.126	1638	3051
-82.713	-0.985	0.002	-0.126	1648	3058
-82.714	-0.993	-0.003	-0.127	1653	3064
-82.491	-0.985	0.000	-0.130	1631	3072
-82.268	-0.993	0.005	-0.135	1644	3078
-82.130	-0.996	0.000	-0.138	1657	3085
-82.536	-0.994	0.010	-0.130	1618	3092
-83.105	-0.989	0.011	-0.119	1612	3098
-83.416	-0.990	0.003	-0.114	1599	3105
-82.916	-0.990	0.002	-0.123	1597	3111
-83.210	-0.984	0.002	-0.117	1585	3119
-82.588	-0.983	0.000	-0.128	1631	3125
-82.938	-0.985	-0.001	-0.122	1600	3132
-83.211	-0.984	0.000	-0.117	1618	3139
-83.978	-0.983	0.007	-0.104	1582	3145
-83.678	-0.987	0.001	-0.109	1571	3152
-83.266	-0.979	0.010	-0.115	1579	3159
-82.923	-0.979	0.010	-0.121	1576	3166
-82.388	-0.981	0.009	-0.131	1580	3173
-82.422	-0.988	0.013	-0.131	1581	3179
-82.697	-0.994	0.011	-0.127	1553	3186
-83.192	-0.987	0.013	-0.117	1554	3192
-82.504	-0.982	0.019	-0.128	1603	3200
-82.436	-0.981	0.011	-0.130	1554	3207
-82.534	-0.978	0.007	-0.128	1523	3213
-82.424	-0.977	0.001	-0.130	1518	3220
-82.441	-0.979	0.005	-0.130	1556	3226
-82.797	-0.982	0.006	-0.124	1549	3233
-82.892	-0.987	0.004	-0.123	1577	3240
-83.185	-0.986	0.013	-0.117	1542	3247
-83.116	-0.988	0.022	-0.117	1540	3254
-82.882	-0.994	0.027	-0.121	1530	3260
-82.160	-0.989	0.030	-0.133	1530	3267
-82.417	-0.989	0.031	-0.128	1540	3274
-81.845	-0.979	0.042	-0.134	1558	3280
-81.697	-0.976	0.043	-0.136	1614	3288
-81.775	-0.979	0.046	-0.134	1541	3294
-81.492	-0.984	0.055	-0.137	1503	3301
-81.376	-0.991	0.063	-0.137	1567	3308
-81.249	-0.993	0.066	-0.138	1532	3314
-81.187	-0.995	0.063	-0.141	1544	3321
-81.431	-0.997	0.066	-0.135	1556	3328
-81.636	-0.996	0.071	-0.128	1549	3335
-81.595	-0.984	0.067	-0.129	1512	3342
-81.706	-0.971	0.064	-0.126	1553	3348
-81.462	-0.975	0.063	-0.132	1527	3355
-82.260	-0.976	0.052	-0.122	1485	3361
-82.659	-0.975	0.033	-0.121	1480	3368
-82.826	-0.977	0.030	-0.119	1500	3376
-83.066	-0.976	0.019	-0.117	1480	3382
-83.560	-0.979	0.007	-0.110	1464	3389
-83.402	-0.981	0.017	-0.112	1574	3395
-84.207	-0.985	0.025	-0.097	1471	3402
-83.707	-0.990	0.028	-0.105	1453	3409
-82.734	-0.988	0.041	-0.119	1478	3416
-82.408	-0.990	0.055	-0.120	1494	3423
-81.595	-0.990	0.065	-0.131	1456	3429
-81.049	-0.996	0.075	-0.138	1478	3436
-81.003	-0.987	0.090	-0.128	1456	3443
-81.189	-0.985	0.092	-0.122	1502	3449
-81.195	-0.983	0.100	-0.115	1482	3457
-81.491	-0.991	0.096	-0.113	1475	3463
-81.519	-0.993	0.092	-0.116	1411	3470
-81.514	-0.988	0.097	-0.111	1436	3477
-81.000	-0.980	0.100	-0.119	1433	3483
-80.872	-0.982	0.098	-0.124	1422	3490
-81.105	-0.987	0.095	-0.122	1475	3496
-80.876	-0.983	0.103	-0.120	1508	3504
-81.401	-0.992	0.101	-0.111	1466	3511
-81.668	-0.986	0.098	-0.106	1439	3517
-81.531	-0.984	0.092	-0.114	1436	3524
-81.844	-0.981	0.082	-0.114	1445	3530
-81.608	-0.980	0.082	-0.119	1490	3537
-81.567	-0.981	0.069	-0.128	1497	3545
-82.066	-0.979	0.068	-0.118	1451	3551
-82.338	-0.990	0.062	-0.118	1444	3558
-82.541	-0.991	0.062	-0.114	1509	3564
-83.164	-0.992	0.059	-0.104	1495	3571
-82.994	-0.994	0.069	-0.101	1460	3578
-82.371	-0.995	0.076	-0.109	1466	3585
-81.912	-0.996	0.090	-0.109	1434	3592
-81.478	-0.986	0.103	-0.106	1448	3598
-81.170	-0.982	0.106	-0.109	1424	3605
-80.782	-0.975	0.109	-0.114	1447	3612
-81.055	-0.979	0.106	-0.111	1427	3618
-80.970	-0.974	0.112	-0.106	1440	3625
-81.001	-0.973	0.106	-0.111	1458	3632
-81.133	-0.988	0.104	-0.114	1421	3639
-81.568	-0.985	0.096	-0.110	1437	3646
-81.708	-0.992	0.096	-0.108	1463	3652
-81.520	-0.989	0.091	-0.116	1471	3659
-81.488	-0.993	0.089	-0.119	1452	3665
-81.578	-0.996	0.087	-0.119	1450	3673
-81.638	-0.996	0.093	-0.113	1433	3680
-81.833	-0.994	0.093	-0.108	1431	3686
-81.836	-0.987	0.097	-0.104	1431	3693
-81.673	-0.986	0.100	-0.104	1512	3699
-81.330	-0.987	0.107	-0.105	1438	3706
-80.956	-0.981	0.115	-0.105	1460	3714
-80.747	-0.982	0.122	-0.104	1500	3720
-80.783	-0.982	0.122	-0.103	1413	3727
-80.457	-0.989	0.127	-0.107	1421	3733
-80.487	-0.991	0.125	-0.109	1434	3740
-80.308	-0.991	0.124	-0.115	1456	3747
-79.938	-0.989	0.129	-0.119	1546	3753
-79.855	-0.992	0.129	-0.122	1429	3761
-80.158	-0.988	0.127	-0.115	1463	3767
-80.212	-0.978	0.124	-0.114	1408	3774
-80.221	-0.966	0.115	-0.120	1426	3781
-80.509	-0.969	0.106	-0.122	1439	3787
-80.658	-0.971	0.101	-0.124	1414	3794
-81.238	-0.982	0.102	-0.112	1401	3801
-81.671	-0.986	0.099	-0.105	1439	3808
-81.015	-0.997	0.117	-0.105	1470	3815
-81.209	-0.993	0.120	-0.096	1457	3821
-81.265	-0.987	0.125	-0.086	1451	3828
-81.371	-0.983	0.124	-0.083	1483	3834
-80.947	-0.984	0.125	-0.095	1445	3842
-80.606	-0.989	0.126	-0.104	1436	3849
-80.310	-0.995	0.131	-0.108	1486	3855
-80.199	-0.988	0.126	-0.115	1441	3862
-80.481	-0.981	0.128	-0.104	1443	3868
-80.804	-0.986	0.124	-0.101	1470	3875
-80.321	-0.988	0.134	-0.103	1469	3883
-80.259	-0.985	0.137	-0.100	1450	3889
-80.229	-0.983	0.144	-0.090	1461	3896
-79.829	-0.984	0.146	-0.099	1460	3902
-79.241	-0.976	0.150	-0.108	1477	3909
-79.224	-0.982	0.146	-0.116	1464	3916
-79.419	-0.977	0.141	-0.116	1452	3922
-79.753	-0.975	0.136	-0.112	1456	3930
-80.254	-0.979	0.131	-0.105	1460	3936
-81.082	-0.986	0.113	-0.105	1515	3943
-81.574	-0.988	0.104	-0.104	1462	3950
-82.107	-0.992	0.093	-0.102	1468	3956
-81.623	-0.994	0.103	-0.104	1506	3963
-81.430	-0.996	0.100	-0.112	1467	3970
-81.136	-0.983	0.111	-0.105	1425	3977
-80.978	-0.976	0.115	-0.104	1449	3984
-80.192	-0.969	0.126	-0.110	1438	3990
-79.546	-0.970	0.138	-0.114	1425	3997
-79.356	-0.971	0.141	-0.116	1452	4003
-79.448	-0.975	0.139	-0.117	1451	4011
-79.761	-0.969	0.145	-0.099	1461	4018
-79.827	-0.977	0.146	-0.098	1455	4024
-80.213	-0.981	0.140	-0.096	1517	4031
-80.336	-0.985	0.136	-0.099	1463	4038
-80.620	-0.993	0.132	-0.098	1469	4044
-80.952	-0.994	0.123	-0.100	1432	4051
-81.456	-0.986	0.112	-0.097	1518	4058
-81.374	-0.988	0.109	-0.103	1538	4065
-81.706	-0.982	0.107	-0.095	1448	4072
-80.917	-0.978	0.116	-0.104	1451	4078
-81.357	-0.976	0.113	-0.096	1487	4085
-80.661	-0.969	0.121	-0.104	1426	4091
-79.962	-0.967	0.135	-0.105	1482	4099
-80.075	-0.974	0.142	-0.095	1492	4106
-79.807	-0.969	0.150	-0.088	1469	4112
-78.834	-0.968	0.167	-0.093	1471	4119
-78.694	-0.979	0.169	-0.099	1476	4125
-78.598	-0.988	0.171	-0.103	1519	4132
-78.190	-0.995	0.176	-0.111	1481	4140
-78.350	-0.995	0.175	-0.107	1494	4146
-78.407	-0.990	0.170	-0.111	1457	4153
-78.381	-0.985	0.168	-0.113	1493	4159
-78.211	-0.979	0.170	-0.113	1550	4166
-78.197	-0.970	0.166	-0.116	1480	4173
-78.253	-0.971	0.165	-0.116	1469	4179
-77.542	-0.970	0.179	-0.118	1420	4187
-78.089	-0.978	0.175	-0.109	1518	4193
-77.410	-0.978	0.184	-0.118	1443	4200
-76.776	-0.984	0.193	-0.127	1454	4207
-77.353	-0.982	0.191	-0.109	1494	4213
-77.299	-0.981	0.193	-0.107	1501	4220
-77.622	-0.976	0.188	-0.102	1458	4227
-78.279	-0.976	0.177	-0.099	1454	4234
-78.746	-0.970	0.167	-0.097	1426	4241
-79.195	-0.971	0.163	-0.088	1428	4247
-79.388	-0.970	0.162	-0.082	1429	4254
-80.230	-0.977	0.149	-0.077	1496	4260
-80.222	-0.969	0.146	-0.080	1437	4268
-80.149	-0.979	0.150	-0.079	1429	4275
-80.478	-0.979	0.142	-0.083	1458	4281
-80.285	-0.983	0.146	-0.083	1497	4288
-80.067	-0.981	0.149	-0.085	1494	4294
-79.382	-0.977	0.161	-0.087	1450	4301
-79.122	-0.981	0.163	-0.095	1495	4308
-79.166	-0.979	0.162	-0.094	1505	4315
-79.084	-0.980	0.163	-0.096	1470	4322
-79.139	-0.985	0.158	-0.104	1473	4328
-79.267	-0.993	0.155	-0.106	1441	4335
-78.847	-0.992	0.160	-0.112	1460	4342
-78.932	-0.983	0.168	-0.094	1419	4348
-78.570	-0.979	0.177	-0.089	1482	4356
-78.089	-0.972	0.187	-0.085	1448	4362
-77.332	-0.966	0.200	-0.084	1487	4369
-76.559	-0.961	0.211	-0.091	1434	4376
-75.683	-0.963	0.229	-0.088	1446	4382
-75.953	-0.968	0.221	-0.100	1515	4389
-76.117	-0.974	0.216	-0.106	1474	4396
-77.040	-0.978	0.199	-0.104	1490	4403
-78.101	-0.985	0.182	-0.101	1452	4410
-78.902	-0.992	0.166	-0.102	1444	4416
-79.989	-0.991	0.145	-0.099	1508	4423
-80.356	-0.988	0.130	-0.106	1466	4429
-80.139	-0.986	0.127	-0.115	1512	4436
-79.776	-0.975	0.141	-0.105	1507	4444
-79.101	-0.971	0.149	-0.112	1460	4450
-78.513	-0.971	0.157	-0.119	1447	4457
-77.560	-0.953	0.172	-0.121	1434	4463
-76.686	-0.938	0.183	-0.126	1469	4470
-76.429	-0.936	0.200	-0.104	1493	4477
-76.682	-0.943	0.203	-0.093	1447	4484
-76.618	-0.956	0.213	-0.080	1420	4491
-76.722	-0.978	0.215	-0.084	1569	4497
-77.232	-0.999	0.206	-0.094	1466	4504
-77.645	-1.005	0.197	-0.098	1505	4511
-77.546	-1.015	0.198	-0.104	1443	4517
-78.103	-1.008	0.187	-0.100	1585	4525
-78.283	-0.981	0.184	-0.088	1454	4531
-77.926	-0.966	0.184	-0.095	1529	4538
-77.627	-0.945	0.180	-0.104	1425	4545
-77.505	-0.934	0.180	-0.103	1482	4551
-77.592	-0.936	0.177	-0.105	1470	4558
-78.082	-0.948	0.172	-0.103	1523	4564
-78.110	-0.952	0.173	-0.102	1460	4572
-78.091	-0.961	0.175	-0.103	1521	4579
-78.062	-0.963	0.180	-0.096	1505	4585
-77.634	-0.973	0.187	-0.102	1542	4592
-77.503	-0.983	0.193	-0.101	1526	4599
-77.142	-0.985	0.201	-0.101	1554	4605
-76.743	-0.982	0.213	-0.091	1505	4613
-76.136	-0.979	0.226	-0.087	1417	4619
-76.026	-0.977	0.227	-0.088	1473	4626
-75.781	-0.971	0.230	-0.086	1530	4633
-75.792	-0.970	0.233	-0.076	1512	4639
-75.593	-0.968	0.235	-0.080	1512	4646
-74.834	-0.968	0.246	-0.091	1435	4653
-74.044	-0.964	0.259	-0.095	1532	4660
-74.169	-0.971	0.259	-0.094	1452	4667
-73.956	-0.977	0.264	-0.097	1468	4673
-73.807	-0.982	0.267	-0.102	1510	4680
-74.532	-0.979	0.253	-0.097	1550	4686
-75.495	-0.975	0.236	-0.088	1533	4694
-76.919	-0.964	0.208	-0.083	1527	4701
-77.596	-0.952	0.191	-0.085	1468	4707
-78.357	-0.956	0.178	-0.085	1548	4714
-79.045	-0.959	0.165	-0.085	1575	4720
-79.138	-0.977	0.166	-0.087	1508	4727
-78.923	-0.978	0.174	-0.080	1511	4734
-78.740	-0.989	0.184	-0.071	1447	4741
-77.927	-0.983	0.198	-0.070	1497	4748
-77.215	-0.979	0.210	-0.072	1489	4754
-75.522	-0.974	0.237	-0.083	1466	4761
-74.848	-0.972	0.249	-0.085	1513	4768
-73.988	-0.975	0.262	-0.099	1517	4774
-73.648	-0.977	0.266	-0.107	1513	4782
-74.180	-0.966	0.253	-0.104	1525	4788
-74.065	-0.952	0.251	-0.104	1532	4795
-75.337	-0.955	0.232	-0.092	1433	4802
-76.895	-0.951	0.199	-0.097	1504	4808
-78.451	-0.940	0.171	-0.088	1487	4815
-79.601	-0.949	0.150	-0.088	1516	4822
-80.271	-0.967	0.139	-0.091	1480	4829
-80.276	-0.973	0.145	-0.083	1481	4836
-78.862	-0.980	0.173	-0.086	1541	4842
-77.689	-0.992	0.201	-0.080	1468	4849
-76.087	-0.988	0.235	-0.067	1443	4855
-74.283	-0.984	0.267	-0.075	1526	4862
-73.061	-0.974	0.288	-0.070	1554	4870
-72.379	-0.959	0.296	-0.072	1491	4876
-72.814	-0.948	0.283	-0.076	1476	4883
-73.714	-0.938	0.264	-0.075	1480	4889
-74.602	-0.938	0.246	-0.078	1487	4896
-75.165	-0.941	0.231	-0.093	1536	4903
-76.113	-0.950	0.216	-0.093	1500	4910
-77.023	-0.959	0.198	-0.098	1490	4917
-77.749	-0.968	0.186	-0.099	1493	4923
-78.219	-0.975	0.178	-0.099	1486	4930
-77.836	-0.976	0.184	-0.103	1470	4937
-76.777	-0.979	0.206	-0.103	1472	4943
-75.666	-0.978	0.229	-0.099	1519	4951
-74.111	-0.967	0.263	-0.082	1453	4957
-72.864	-0.959	0.283	-0.085	1448	4964
-72.017	-0.950	0.298	-0.080	1492	4971
-71.083	-0.943	0.313	-0.079	1489	4977
-71.318	-0.944	0.309	-0.082	1574	4984
-72.316	-0.950	0.293	-0.077	1478	4990
-73.427	-0.951	0.273	-0.073	1540	4998
-74.082	-0.955	0.259	-0.085	1534	5005
-75.053	-0.958	0.244	-0.076	1489	5011
-75.830	-0.959	0.230	-0.074	1470	5018
-76.330	-0.976	0.223	-0.082	1490	5024
-76.444	-0.979	0.220	-0.086	1487	5031
-76.150	-0.979	0.229	-0.078	1570	5039
-75.984	-0.978	0.235	-0.064	1467	5045
-74.337	-0.972	0.263	-0.072	1497	5052
-73.354	-0.967	0.274	-0.091	1532	5058
-72.544	-0.952	0.287	-0.085	1488	5065
-71.426	-0.937	0.300	-0.096	1473	5072
-71.732	-0.938	0.295	-0.094	1479	5079
-71.886	-0.939	0.293	-0.093	1548	5086
-72.806	-0.951	0.280	-0.090	1490	5092
-74.325	-0.953	0.255	-0.081	1577	5099
-75.757	-0.969	0.235	-0.071	1505	5106
-77.114	-0.971	0.212	-0.066	1535	5112
-77.346	-0.970	0.206	-0.070	1512	5120
-77.687	-0.974	0.200	-0.071	1449	5126
-76.940	-0.979	0.215	-0.073	1591	5133
-76.187	-0.965	0.227	-0.070	1524	5140
-75.287	-0.959	0.243	-0.065	1471	5146
-74.299	-0.958	0.262	-0.063	1463	5153
-73.250	-0.949	0.278	-0.064	1426	5159
-72.847	-0.948	0.286	-0.062	1485	5167
-71.533	-0.954	0.311	-0.071	1453	5174
-71.521	-0.952	0.307	-0.085	1462	5180
-71.192	-0.951	0.312	-0.089	1472	5187
-71.824	-0.946	0.296	-0.095	1535	5193
-72.344	-0.938	0.285	-0.088	1427	5200
-73.348	-0.931	0.269	-0.073	1585	5208
-74.040	-0.929	0.256	-0.071	1492	5214
-74.486	-0.936	0.250	-0.070	1442	5221
-75.194	-0.950	0.240	-0.073	1543	5227
-75.502	-0.971	0.234	-0.090	1491	5234
-74.904	-0.975	0.247	-0.090	1474	5241
-74.974	-0.982	0.254	-0.071	1472	5248
-73.581	-0.968	0.277	-0.066	1487	5255
-72.739	-0.961	0.293	-0.058	1493	5261
-71.675	-0.950	0.310	-0.057	1481	5268
-71.012	-0.958	0.322	-0.069	1466	5275
-70.362	-0.951	0.329	-0.083	1427	5281
-70.627	-0.933	0.320	-0.070	1504	5288
-71.852	-0.936	0.295	-0.084	1516	5295
-73.686	-0.932	0.259	-0.086	1478	5302
-75.604	-0.936	0.225	-0.085	1495	5309
-77.047	-0.950	0.204	-0.078	1538	5315
-77.764	-0.960	0.196	-0.069	1558	5322
-78.385	-0.974	0.190	-0.062	1519	5328
-77.970	-0.981	0.200	-0.061	1481	5336
-76.524	-0.982	0.229	-0.057	1430	5343
-75.072	-0.977	0.254	-0.058	1510	5349
-72.792	-0.965	0.294	-0.054	1487	5356
-71.142	-0.956	0.320	-0.063	1523	5362
-69.924	-0.944	0.338	-0.070	1476	5369
-69.536	-0.935	0.342	-0.069	1503	5377
-68.940	-0.925	0.351	-0.063	1494	5383
-70.249	-0.929	0.326	-0.069	1523	5390
-71.385	-0.930	0.305	-0.072	1535	5396
-72.644	-0.938	0.285	-0.067	1515	5403
-73.694	-0.952	0.271	-0.066	1504	5410
-74.466	-0.958	0.260	-0.059	1529	5416
-74.771	-0.958	0.254	-0.060	1569	5424
-74.760	-0.964	0.257	-0.055	1508	5430
-73.994	-0.969	0.272	-0.055	1455	5437
-73.120	-0.962	0.286	-0.058	1482	5444
-71.895	-0.954	0.308	-0.052	1454	5450
-70.803	-0.944	0.324	-0.055	1517	5457
-70.200	-0.946	0.336	-0.057	1455	5464
-68.777	-0.930	0.354	-0.073	1505	5471
-68.727	-0.926	0.354	-0.070	1455	5478
-69.133	-0.920	0.344	-0.069	1536	5484
-70.384	-0.916	0.318	-0.072	1496	5491
-71.702	-0.922	0.295	-0.077	1578	5497
-72.850	-0.935	0.277	-0.079	1469	5505
-73.161	-0.942	0.275	-0.074	1504	5512
-73.353	-0.957	0.276	-0.074	1589	5518
-73.117	-0.968	0.284	-0.074	1466	5525
-71.749	-0.978	0.312	-0.079	1573	5531
-70.229	-0.971	0.340	-0.079	1457	5538
-68.674	-0.960	0.365	-0.084	1420	5545
-67.334	-0.943	0.387	-0.075	1476	5552
-66.226	-0.938	0.406	-0.074	1545	5559
-66.090	-0.928	0.401	-0.090	1513	5565
-66.673	-0.919	0.388	-0.082	1482	5572
-67.394	-0.912	0.372	-0.076	1488	5579
-69.968	-0.912	0.323	-0.078	1500	5585
-71.723	-0.911	0.294	-0.064	1530	5593
-73.159	-0.915	0.271	-0.060	1473	5599
-73.978	-0.924	0.258	-0.063	1429	5606
-74.469	-0.938	0.253	-0.063	1533	5613
-74.408	-0.948	0.258	-0.060	1555	5619
-74.091	-0.953	0.269	-0.041	1609	5626
-72.932	-0.951	0.288	-0.048	1487	5633
-72.028	-0.951	0.306	-0.042	1557	5640
-70.745	-0.945	0.327	-0.045	1496	5647
-69.622	-0.931	0.343	-0.045	1500	5653
-67.881	-0.914	0.368	-0.050	1441	5660
-67.687	-0.917	0.371	-0.063	1496	5666
-67.610	-0.921	0.374	-0.063	1529	5673
-67.443	-0.922	0.377	-0.067	1391	5681
-67.972	-0.937	0.373	-0.066	1605	5687
-67.795	-0.946	0.381	-0.064	1494	5694
-68.696	-0.961	0.369	-0.064	1515	5700
-67.895	-0.968	0.389	-0.059	1399	5707
-67.226	-0.966	0.401	-0.058	1424	5714
-66.825	-0.952	0.404	-0.052	1340	5721
-66.042	-0.942	0.415	-0.056	1337	5728
-65.858	-0.938	0.417	-0.052	1415	5734
-66.068	-0.930	0.410	-0.045	1530	5741
-67.512	-0.933	0.384	-0.042	1550	5748
-69.383	-0.948	0.354	-0.048	1496	5754
-70.977	-0.953	0.326	-0.040	1510	5762
-72.659	-0.949	0.293	-0.045	1484	5768
-72.824	-0.926	0.281	-0.053	1353	5775
-73.491	-0.915	0.266	-0.055	1431	5782
-73.507	-0.914	0.265	-0.057	1448	5788
-74.357	-0.921	0.255	-0.039	1442	5795
-74.429	-0.932	0.256	-0.044	1433	5803
-74.195	-0.947	0.263	-0.054	1443	5809
-73.938	-0.947	0.268	-0.053	1414	5816
-71.481	-0.941	0.308	-0.069	1498	5822
-69.196	-0.930	0.348	-0.063	1499	5829
-67.247	-0.918	0.380	-0.063	1431	5836
-66.047	-0.925	0.405	-0.067	1423	5842
-65.089	-0.920	0.421	-0.073	1568	5850
-64.637	-0.918	0.428	-0.080	1430	5856
-64.862	-0.924	0.427	-0.076	1495	5863
-65.626	-0.929	0.412	-0.085	1451	5870
-66.604	-0.936	0.398	-0.071	1550	5876
-67.281	-0.929	0.380	-0.083	1415	5883
-68.277	-0.933	0.365	-0.068	1381	5890
-69.036	-0.934	0.353	-0.061	1419	5897
-69.803	-0.926	0.337	-0.050	1519	5904
-70.534	-0.922	0.323	-0.041	1488	5910
-70.935	-0.919	0.316	-0.027	1518	5917
-71.733	-0.926	0.305	-0.023	1571	5923
-71.834	-0.916	0.299	-0.032	1482	5931
-71.876	-0.914	0.297	-0.037	1436	5938
-72.371	-0.909	0.286	-0.040	1418	5944
-72.235	-0.917	0.290	-0.047	1465	5951
-72.488	-0.931	0.290	-0.046	1467	5957
-71.295	-0.936	0.314	-0.038	1437	5964
-71.231	-0.950	0.321	-0.032	1495	5971
-69.608	-0.949	0.351	-0.040	1443	5978
-68.548	-0.948	0.370	-0.043	1527	5985
-66.348	-0.931	0.404	-0.052	1412	5991
-65.360	-0.925	0.421	-0.053	1552	5998
-64.492	-0.917	0.433	-0.065	1497	6005
-64.792	-0.913	0.425	-0.065	1466	6011
-65.207	-0.910	0.413	-0.078	1533	6019
-66.529	-0.906	0.384	-0.087	1512	6025
-67.260	-0.912	0.374	-0.079	1434	6032
-68.116	-0.914	0.357	-0.084	1457	6039
-68.080	-0.924	0.364	-0.074	1427	6045
-68.210	-0.935	0.369	-0.058	1506	6052
-67.206	-0.927	0.386	-0.054	1449	6059
-66.432	-0.921	0.399	-0.043	1516	6066
-66.422	-0.914	0.397	-0.034	1422	6073
-65.647	-0.913	0.412	-0.031	1468	6079
-65.777	-0.910	0.408	-0.032	1496	6086
-66.118	-0.907	0.400	-0.032	1524	6092
-67.039	-0.914	0.386	-0.034	1500	6099
-67.914	-0.918	0.370	-0.042	1537	6106
-68.910	-0.929	0.354	-0.058	1448	6113
-70.592	-0.931	0.321	-0.065	1479	6120
-71.753	-0.938	0.300	-0.075	1532	6126
-71.390	-0.941	0.304	-0.091	1496	6133
-70.615	-0.929	0.314	-0.089	1420	6139
-69.424	-0.926	0.339	-0.077	1554	6147
-68.219	-0.914	0.360	-0.060	1440	6154
-67.695	-0.921	0.373	-0.060	1399	6160
-66.117	-0.903	0.396	-0.060	1418	6167
-65.511	-0.894	0.403	-0.055	1516	6173
-64.652	-0.881	0.414	-0.052	1483	6180
-64.677	-0.874	0.411	-0.045	1455	6188
-65.296	-0.878	0.402	-0.035	1551	6194
-66.352	-0.884	0.386	-0.031	1590	6201
-68.246	-0.892	0.354	-0.030	1580	6207
-69.698	-0.906	0.334	-0.029	1544	6214
-70.731	-0.920	0.319	-0.038	1514	6221
-70.871	-0.937	0.321	-0.048	1429	6227
-70.727	-0.958	0.329	-0.063	1566	6235
-69.436	-0.962	0.357	-0.050	1376	6241
-68.102	-0.963	0.385	-0.042	1397	6248
-66.062	-0.939	0.416	-0.029	1472	6255
-65.185	-0.921	0.425	-0.029	1500	6261
-63.696	-0.904	0.446	-0.025	1482	6268
-62.617	-0.888	0.459	-0.027	1504	6275
-61.871	-0.883	0.471	-0.034	1627	6282
-62.472	-0.878	0.456	-0.037	1542	6289
-63.754	-0.891	0.437	-0.048	1509	6295
-65.821	-0.896	0.399	-0.050	1574	6302
-67.436	-0.913	0.375	-0.058	1494	6308
-68.692	-0.923	0.354	-0.063	1538	6316
-69.228	-0.929	0.347	-0.063	1467	6323
-69.964	-0.931	0.335	-0.055	1512	6329
-69.420	-0.933	0.345	-0.062	1483	6336
-68.231	-0.929	0.366	-0.059	1514	6342
-66.651	-0.917	0.393	-0.051	1508	6349
-65.277	-0.905	0.414	-0.048	1390	6356
-64.608	-0.896	0.424	-0.038	1315	6363
-63.367	-0.881	0.439	-0.045	1426	6370
-63.790	-0.871	0.427	-0.042	1479	6376
-64.110	-0.871	0.421	-0.040	1503	6383
-65.146	-0.874	0.403	-0.035	1571	6390
-66.410	-0.889	0.387	-0.032	1560	6396
-67.190	-0.896	0.375	-0.039	1627	6404
-67.836	-0.914	0.369	-0.049	1659	6410
-67.795	-0.927	0.375	-0.050	1590	6417
-67.740	-0.938	0.381	-0.047	1433	6424
-67.487	-0.940	0.387	-0.049	1406	6430
-66.519	-0.939	0.406	-0.039	1401	6437
-65.017	-0.933	0.433	-0.041	1355	6444
-63.599	-0.924	0.458	-0.023	1545	6451
-62.137	-0.911	0.481	-0.015	1483	6458
-61.606	-0.896	0.484	-0.015	1451	6464
-61.385	-0.876	0.478	-0.019	1376	6471
-61.666	-0.867	0.467	-0.027	1403	6477
-62.879	-0.869	0.443	-0.040	1476	6484
-63.609	-0.873	0.431	-0.047	1385	6491
-65.688	-0.890	0.398	-0.053	1453	6498
-67.092	-0.905	0.379	-0.053	1445	6505
-68.176	-0.914	0.361	-0.059	1524	6511
-68.650	-0.923	0.357	-0.049	1496	6518
-69.079	-0.927	0.353	-0.035	1485	6524
-68.132	-0.918	0.367	-0.030	1403	6532
-67.543	-0.913	0.377	-0.019	1447	6539
-65.653	-0.900	0.407	-0.013	1615	6545
-64.623	-0.894	0.424	-0.005	1541	6552
-63.078	-0.885	0.449	-0.008	1496	6558
-62.291	-0.882	0.463	-0.016	1525	6565
-62.234	-0.883	0.464	-0.029	1445	6573
-61.732	-0.884	0.474	-0.039	1497	6579
-61.696	-0.892	0.477	-0.059	1470	6586
-60.924	-0.900	0.496	-0.067	1433	6592
-61.172	-0.904	0.490	-0.086	1515	6599
-61.616	-0.903	0.480	-0.086	1448	6606
-62.211	-0.895	0.464	-0.084	1543	6612
-62.752	-0.884	0.449	-0.073	1412	6620
-63.478	-0.874	0.433	-0.056	1489	6626
-63.969	-0.861	0.419	-0.038	1652	6633
-64.099	-0.855	0.415	-0.018	1474	6640
-64.479	-0.857	0.409	-0.012	1570	6646
-64.916	-0.872	0.408	0.000	1404	6653
-65.251	-0.880	0.405	0.017	1377	6660
-65.872	-0.893	0.399	0.018	1486	6667
-65.968	-0.896	0.398	0.026	1473	6674
-66.234	-0.901	0.396	0.019	1381	6680
-66.158	-0.915	0.404	0.008	1508	6687
-65.699	-0.917	0.414	-0.001	1529	6693
-64.654	-0.896	0.424	-0.018	1532	6701
-63.666	-0.885	0.437	-0.035	1482	6707
-62.649	-0.872	0.449	-0.041	1496	6714
-62.153	-0.872	0.458	-0.050	1524	6721
-61.768	-0.869	0.465	-0.041	1403	6727
-61.331	-0.871	0.475	-0.040	1489	6734
-61.023	-0.877	0.484	-0.035	1506	6740
-60.821	-0.877	0.489	-0.021	1462	6748
-60.291	-0.875	0.499	-0.016	1474	6755
-60.229	-0.876	0.501	-0.011	1429	6761
-60.503	-0.877	0.496	0.000	1506	6768
-61.052	-0.883	0.488	-0.004	1599	6774
-61.774	-0.890	0.478	0.000	1473	6781
-61.957	-0.898	0.479	-0.008	1600	6789
-62.942	-0.908	0.464	-0.007	1506	6795
-62.594	-0.914	0.474	-0.017	1337	6802
-62.691	-0.905	0.467	-0.024	1587	6808
-62.925	-0.910	0.465	-0.020	1377	6815
-62.047	-0.898	0.477	-0.014	1424	6821
-61.212	-0.891	0.489	-0.011	1428	6829
-60.303	-0.868	0.495	0.003	1484	6836
-59.664	-0.854	0.500	0.007	1590	6842
-59.601	-0.834	0.489	0.004	1443	6849
-60.058	-0.822	0.474	0.000	1558	6855
-60.697	-0.821	0.461	0.001	1449	6862
-62.313	-0.834	0.438	0.010	1526	6870
-63.080	-0.839	0.426	0.012	1439	6876
-63.253	-0.866	0.437	0.004	1445	6883
-63.895	-0.879	0.431	-0.001	1396	6889
-63.872	-0.914	0.448	0.010	1421	6896
-62.732	-0.921	0.475	0.007	1446	6902
-61.621	-0.935	0.505	0.000	1490	6909
-59.799	-0.932	0.542	-0.017	1376	6917
-57.762	-0.921	0.580	-0.028	1443	6923
-56.312	-0.902	0.600	-0.048	1484	6930
-55.230	-0.876	0.604	-0.066	1559	6936
-54.695	-0.856	0.603	-0.069	1433	6943
-55.288	-0.845	0.581	-0.069	1548	6950
-56.197	-0.816	0.544	-0.054	1500	6957
-58.035	-0.798	0.496	-0.042	1376	6964
-59.824	-0.795	0.461	-0.034	1607	6970
-61.232	-0.799	0.438	-0.010	1444	6977
-62.125	-0.811	0.429	0.001	1514	6984
-63.015	-0.841	0.428	0.019	1450	6990
-63.155	-0.867	0.438	0.020	1600	6998
-62.601	-0.897	0.465	0.018	1397	7004
-61.556	-0.914	0.495	-0.004	1355	7011
-59.919	-0.918	0.531	-0.022	1438	7017
-57.725	-0.901	0.568	-0.032	1580	7024
-56.169	-0.891	0.596	-0.038	1469	7031
-55.091	-0.862	0.600	-0.051	1542	7037
-54.957	-0.841	0.588	-0.046	1411	7045
-54.799	-0.808	0.567	-0.052	1530	7051
-55.852	-0.800	0.541	-0.040	1353	7058
-56.051	-0.799	0.536	-0.042	1465	7065
-57.113	-0.804	0.519	-0.034	1606	7071
-58.213	-0.835	0.517	-0.029	1405	7078
-60.014	-0.867	0.500	-0.020	1373	7085
-61.324	-0.886	0.484	-0.009	1535	7092
-62.319	-0.914	0.479	-0.003	1550	7099
-62.948	-0.916	0.468	0.001	1514	7105
-62.690	-0.906	0.468	-0.013	1489	7112
-62.356	-0.896	0.469	-0.017	1522	7118
-61.269	-0.863	0.473	-0.023	1537	7126
-60.834	-0.849	0.473	-0.030	1399	7132
-59.727	-0.827	0.482	-0.020	1513	7139
-58.282	-0.803	0.496	-0.005	1460	7146
-57.911	-0.796	0.499	-0.006	1401	7152
-57.915	-0.793	0.497	0.009	1419	7159
-58.348	-0.799	0.492	0.016	1393	7165
-59.168	-0.815	0.486	0.020	1467	7173
-59.653	-0.836	0.489	0.012	1586	7180
-59.805	-0.853	0.496	-0.001	1535	7186
-59.372	-0.871	0.516	-0.011	1470	7193
-59.537	-0.900	0.529	-0.018	1561	7199
-59.405	-0.912	0.539	-0.017	1438	7206
-58.745	-0.919	0.558	-0.012	1528	7214
-57.798	-0.919	0.578	-0.026	1516	7220
-57.372	-0.902	0.576	-0.042	1537	7227
-57.702	-0.892	0.563	-0.035	1455	7233
-57.391	-0.864	0.553	-0.014	1477	7240
-57.503	-0.845	0.538	0.002	1441	7247
-57.110	-0.813	0.525	0.007	1563	7254
-57.378	-0.803	0.514	0.012	1559	7261
-58.199	-0.794	0.492	0.010	1588	7267
-58.685	-0.793	0.482	-0.001	1480	7274
-59.259	-0.795	0.473	-0.010	1490	7280
-59.831	-0.809	0.470	-0.017	1512	7287
-60.955	-0.832	0.462	-0.012	1569	7294
-60.917	-0.852	0.474	-0.001	1475	7301
-60.331	-0.876	0.499	0.000	1498	7308
-60.397	-0.889	0.505	-0.005	1428	7314
-59.609	-0.899	0.527	-0.013	1630	7321
-58.128	-0.895	0.556	-0.024	1586	7328
-56.422	-0.875	0.580	-0.030	1464	7334
-55.329	-0.870	0.601	-0.039	1513	7342
-54.525	-0.844	0.600	-0.045	1542	7348
-54.214	-0.818	0.588	-0.049	1438	7355
-54.803	-0.793	0.557	-0.055	1540	7362
-55.264	-0.778	0.536	-0.062	1491	7368
-56.537	-0.778	0.512	-0.053	1556	7375
-57.146	-0.781	0.503	-0.040	1488	7382
-58.942	-0.803	0.482	-0.031	1579	7389
-60.144	-0.834	0.479	-0.014	1527	7395
-60.876	-0.847	0.472	0.007	1491	7402
-61.374	-0.868	0.474	0.015	1411	7409
-61.825	-0.880	0.471	0.023	1498	7415
-61.034	-0.878	0.485	0.024	1603	7422
-60.396	-0.873	0.495	0.030	1438	7429
-59.074	-0.861	0.516	0.021	1417	7436
-57.877	-0.842	0.528	0.015	1541	7443
-57.592	-0.826	0.524	0.007	1547	7449
-57.547	-0.813	0.517	-0.009	1400	7456
-57.609	-0.805	0.510	-0.027	1551	7462
-57.738	-0.810	0.510	-0.036	1495	7470
-56.954	-0.807	0.523	-0.037	1626	7477
-57.086	-0.827	0.534	-0.036	1419	7483
-57.243	-0.837	0.537	-0.038	1536	7490
-56.681	-0.846	0.555	-0.037	1557	7496
-56.032	-0.848	0.570	-0.029	1474	7503
-55.909	-0.845	0.571	-0.022	1509	7510
-55.612	-0.847	0.579	-0.021	1571	7517
-55.276	-0.843	0.584	-0.011	1523	7524
-55.107	-0.836	0.583	-0.002	1540	7530
-55.842	-0.832	0.564	0.011	1458	7537
-56.300	-0.814	0.543	0.015	1494	7543
-56.273	-0.800	0.533	0.028	1537	7550
-57.130	-0.796	0.514	0.025	1528	7558
-57.798	-0.796	0.500	0.035	1521	7564
-57.853	-0.811	0.507	0.051	1575	7571
-57.959	-0.813	0.506	0.058	1446	7577
-58.670	-0.831	0.501	0.070	1355	7584
-57.816	-0.839	0.525	0.052	1438	7590
-56.922	-0.845	0.549	0.039	1492	7598
-55.391	-0.853	0.588	0.022	1606	7605
-54.279	-0.862	0.620	0.000	1460	7611
-53.434	-0.860	0.638	-0.024	1458	7618
-53.049	-0.865	0.649	-0.043	1457	7624
-52.614	-0.851	0.646	-0.067	1444	7631
-52.282	-0.836	0.641	-0.087	1482	7639
-51.834	-0.818	0.638	-0.084	1420	7645
-52.547	-0.800	0.607	-0.080	1419	7652
-52.939	-0.783	0.589	-0.056	1530	7658
-54.222	-0.769	0.553	-0.035	1594	7665
-54.290	-0.750	0.539	-0.009	1497	7671
-55.441	-0.749	0.516	0.018	1544	7678
-56.177	-0.755	0.505	0.030	1623	7686
-57.148	-0.767	0.493	0.043	1530	7692
-57.980	-0.789	0.491	0.047	1469	7699
-58.149	-0.812	0.501	0.057	1489	7705
-57.210	-0.833	0.533	0.061	1484	7712
-56.283	-0.862	0.572	0.061	1530	7719
-54.343	-0.871	0.621	0.069	1556	7726
-54.093	-0.882	0.637	0.048	1502	7733
-53.141	-0.859	0.644	0.030	1451	7739
-52.165	-0.844	0.655	0.006	1454	7746
-51.770	-0.814	0.642	0.000	1361	7753
-52.041	-0.786	0.613	-0.004	1414	7759
-51.653	-0.757	0.599	-0.010	1496	7767
-51.233	-0.752	0.604	-0.021	1528	7773
-50.698	-0.741	0.605	-0.039	1473	7780
-50.304	-0.744	0.616	-0.043	1443	7786
-50.360	-0.758	0.626	-0.048	1415	7793
-50.213	-0.771	0.640	-0.051	1439	7800
-50.805	-0.788	0.641	-0.051	1490	7806
-51.733	-0.808	0.636	-0.041	1530	7814
-52.638	-0.815	0.622	-0.025	1549	7820
-53.772	-0.829	0.607	-0.001	1510	7827
-54.713	-0.834	0.590	0.021	1594	7834
-55.060	-0.832	0.578	0.061	1485	7840
-54.935	-0.805	0.557	0.096	1403	7847
-55.157	-0.795	0.539	0.125	1599	7854
-55.199	-0.785	0.530	0.129	1459	7861
-55.709	-0.797	0.529	0.123	1394	7868
-55.954	-0.803	0.532	0.104	1533	7874
-55.782	-0.815	0.550	0.072	1453	7881
-55.158	-0.837	0.582	0.025	1454	7887
-53.720	-0.844	0.618	-0.038	1378	7895
-51.966	-0.848	0.657	-0.088	1385	7901
-49.613	-0.824	0.690	-0.122	1407	7908
-47.915	-0.804	0.716	-0.120	1569	7915
-46.984	-0.771	0.713	-0.100	1518	7921
-46.871	-0.747	0.697	-0.060	1623	7928
-47.321	-0.719	0.662	-0.029	1592	7934
-48.437	-0.689	0.611	0.003	1634	7942
-50.211	-0.687	0.571	0.023	1537	7949
-52.333	-0.698	0.536	0.056	1417	7955
-53.056	-0.720	0.536	0.074	1420	7962
-53.923	-0.764	0.547	0.103	1375	7968
-54.549	-0.812	0.570	0.093	1443	7975
-54.990	-0.866	0.603	0.071	1360	7983
-53.748	-0.884	0.647	0.028	1424	7989
-52.106	-0.889	0.691	-0.019	1575	7996
-51.123	-0.878	0.706	-0.050	1514	8002
-50.972	-0.852	0.688	-0.050	1551	8009
-50.805	-0.803	0.654	-0.020	1518	8015
-51.295	-0.752	0.603	0.003	1549	8023
-50.891	-0.711	0.577	0.030	1584	8030
-50.359	-0.671	0.553	0.059	1647	8036
-50.738	-0.665	0.538	0.077	1518	8043
-50.556	-0.672	0.543	0.104	1437	8049
-50.832	-0.697	0.560	0.098	1482	8056
-51.004	-0.742	0.596	0.079	1542	8064
-50.799	-0.790	0.643	0.048	1491	8070
-51.525	-0.847	0.673	-0.005	1444	8077
-50.908	-0.878	0.712	-0.044	1521	8083
-50.629	-0.896	0.731	-0.070	1472	8090
-50.414	-0.892	0.732	-0.084	1491	8097
-50.191	-0.862	0.717	-0.052	1528	8103
-50.241	-0.795	0.661	-0.017	1459	8111
-51.407	-0.751	0.599	0.029	1450	8117
-51.250	-0.700	0.556	0.084	1393	8124
-51.556	-0.673	0.520	0.124	1489	8130
-50.801	-0.657	0.520	0.132	1515	8137
-51.472	-0.663	0.511	0.134	1476	8144
-52.148	-0.689	0.521	0.123	1538	8151
-53.282	-0.740	0.545	0.089	1499	8158
-52.419	-0.777	0.597	0.043	1565	8164
-51.994	-0.809	0.632	-0.008	1563	8171
-50.695	-0.837	0.684	-0.046	1570	8178
-50.387	-0.849	0.698	-0.076	1630	8184
-50.455	-0.840	0.690	-0.064	1548	8192
-50.929	-0.814	0.659	-0.052	1563	8198
-50.000	-0.764	0.641	-0.015	1423	8205
-50.642	-0.732	0.601	0.013	1510	8212
-51.144	-0.688	0.552	0.057	1513	8218
-50.500	-0.667	0.545	0.073	1381	8225
-50.862	-0.665	0.537	0.066	1377	8231
-50.580	-0.678	0.555	0.052	1426	8239
-50.482	-0.717	0.590	0.041	1512	8245
-50.532	-0.757	0.623	0.013	1487	8252
-49.531	-0.797	0.680	-0.015	1507	8259
-50.368	-0.845	0.699	-0.023	1557	8265
-49.815	-0.857	0.724	-0.028	1567	8272
-49.684	-0.857	0.728	-0.007	1653	8279
-49.525	-0.832	0.710	0.008	1586	8286
-48.775	-0.784	0.687	0.028	1500	8293
-48.567	-0.742	0.654	0.032	1571	8299
-48.833	-0.707	0.617	0.036	1552	8306
-48.795	-0.671	0.586	0.042	1479	8312
-47.976	-0.658	0.592	0.040	1488	8320
-46.731	-0.646	0.607	0.037	1586	8326
-46.072	-0.677	0.651	0.026	1519	8333
-45.714	-0.715	0.695	0.052	1530	8340
-45.795	-0.745	0.721	0.076	1572	8346
-46.480	-0.764	0.720	0.089	1539	8353
-47.412	-0.763	0.698	0.063	1489	8359
-48.015	-0.753	0.674	0.071	1570	8367
-48.060	-0.736	0.656	0.084	1491	8374
-49.081	-0.719	0.617	0.085	1560	8380
-49.979	-0.705	0.586	0.085	1551	8387
-51.105	-0.697	0.560	0.058	1490	8393
-51.493	-0.691	0.548	0.050	1574	8400
-51.547	-0.710	0.563	0.019	1538	8407
-51.900	-0.728	0.570	-0.013	1480	8414
-53.214	-0.754	0.561	-0.060	1463	8421
-52.896	-0.775	0.582	-0.072	1468	8427
-52.142	-0.790	0.605	-0.103	1479	8434
-50.599	-0.789	0.641	-0.099	1500	8440
-49.164	-0.768	0.660	-0.065	1512	8448
-47.618	-0.736	0.672	-0.010	1514	8455
-47.492	-0.710	0.650	0.021	1521	8461
-46.910	-0.673	0.629	0.025	1560	8468
-47.239	-0.646	0.597	0.018	1569	8474
-48.330	-0.612	0.545	0.008	1553	8481
-52.850	-0.596	0.451	-0.013	1537	8488
-56.532	-0.575	0.378	0.042	1535	8495
-61.937	-0.560	0.295	0.045	1536	8502
-65.326	-0.570	0.257	0.052	1540	8508
-67.313	-0.633	0.264	0.021	1536	8515
-63.391	-0.706	0.354	0.012	1538	8521
-61.598	-0.812	0.438	0.034	1521	8528
-65.818	-0.884	0.395	0.043	1505	8536
-67.810	-0.931	0.362	0.113	1491	8542
-68.478	-0.878	0.303	0.168	1480	8549
-61.153	-0.746	0.326	0.250	1472	8555
-49.952	-0.583	0.403	0.278	1464	8562
-38.358	-0.453	0.513	0.255	1463	8569
-28.810	-0.338	0.590	0.172	1472	8576
-20.356	-0.269	0.716	0.107	1479	8583
-15.189	-0.208	0.766	0.029	1467	8589
-12.915	-0.179	0.777	-0.056	1465	8596
-15.055	-0.196	0.722	-0.108	1460	8602
-21.330	-0.258	0.646	-0.139	1454	8609
-32.304	-0.351	0.537	-0.138	1447	8616
-42.985	-0.465	0.498	-0.026	1440	8623
-47.234	-0.562	0.518	0.043	1425	8630
-48.898	-0.641	0.547	0.115	1409	8636
-48.293	-0.720	0.597	0.235	1393	8643
-49.301	-0.740	0.583	0.256	1375	8649
-49.389	-0.710	0.554	0.253	1363	8656
-46.243	-0.646	0.512	0.347	1374	8664
-44.208	-0.555	0.525	0.222	1402	8670
-31.322	-0.617	0.936	0.392	1468	8677
-26.790	-0.518	0.957	0.367	1483	8683
-21.612	-0.453	1.110	0.274	1472	8690
-19.371	-0.464	1.298	0.237	1460	8696
-15.734	-0.361	1.238	0.334	1459	8704
-18.874	-0.515	1.471	0.321	1477	8711
-16.598	-0.409	1.366	0.134	1493	8717
-15.192	-0.381	1.384	0.229	1494	8724
-10.213	-0.254	1.388	0.246	1490	8730
-9.330	-0.240	1.429	0.312	1478	8737
-8.945	-0.231	1.446	0.266	1472	8743
-8.874	-0.207	1.314	0.175	1463	8751
-8.326	-0.176	1.201	0.002	1462	8757
-11.911	-0.256	1.211	0.071	1470	8764
-5.931	-0.138	1.325	0.030	1476	8771
-12.665	-0.317	1.412	-0.025	1480	8777
-7.132	-0.195	1.555	-0.140	1487	8784
-8.069	-0.226	1.585	-0.141	1494	8791
-7.615	-0.209	1.558	-0.132	1496	8798
-6.920	-0.188	1.553	-0.025	1496	8804
-6.437	-0.179	1.584	-0.013	1503	8811
-7.672	-0.209	1.551	-0.045	1507	8817
-8.764	-0.224	1.450	-0.031	1509	8824
-9.131	-0.216	1.343	-0.011	1509	8830
-9.263	-0.204	1.250	0.061	1511	8838
-9.838	-0.208	1.196	0.087	1515	8844
-11.244	-0.217	1.084	0.119	1518	8851
-13.013	-0.232	0.995	0.146	1521	8858
-14.476	-0.242	0.925	0.157	1524	8864
-15.117	-0.244	0.886	0.180	1525	8871
-10.632	-0.158	0.824	0.176	1525	8878
-14.302	-0.216	0.818	0.217	1527	8885
-16.106	-0.232	0.784	0.182	1528	8891
-14.663	-0.218	0.825	0.108	1528	8898
-14.249	-0.216	0.844	0.102	1529	8905
-13.257	-0.206	0.872	0.066	1528	8911
-8.525	-0.133	0.886	-0.021	1527	8919
-12.493	-0.205	0.925	0.037	1525	8925
-11.822	-0.199	0.951	0.035	1523	8932
-12.853	-0.213	0.932	0.052	1521	8938
-12.281	-0.211	0.968	0.048	1519	8945
-9.580	-0.177	1.045	0.070	1518	8951
-13.476	-0.227	0.944	0.046	1516	8958
-13.581	-0.232	0.962	0.021	1513	8966
-15.152	-0.261	0.963	0.000	1511	8972
-14.858	-0.265	0.997	-0.032	1509	8979
-16.387	-0.296	1.005	-0.052	1509	8985
-15.800	-0.295	1.040	-0.067	1508	8992
-16.631	-0.302	1.006	-0.094	1506	8998
-17.387	-0.312	0.988	-0.114	1504	9006
-17.323	-0.312	0.995	-0.116	1502	9012
-16.796	-0.296	0.975	-0.105	1504	9019
-16.391	-0.294	0.994	-0.102	1504	9026
-17.666	-0.312	0.973	-0.104	1503	9032
-17.363	-0.309	0.982	-0.095	1501	9039
-17.196	-0.302	0.971	-0.092	1499	9046
-17.408	-0.301	0.956	-0.079	1499	9053
-17.620	-0.302	0.947	-0.073	1499	9059
-17.609	-0.298	0.937	-0.060	1500	9066
-17.132	-0.289	0.936	-0.064	1501	9073
-16.909	-0.282	0.927	-0.055	1502	9079
-16.795	-0.276	0.914	-0.054	1503	9086
-17.090	-0.273	0.887	-0.068	1504	9093
-16.125	-0.259	0.894	-0.053	1505	9100
-15.761	-0.251	0.888	-0.053	1505	9106
-15.923	-0.252	0.881	-0.063	1505	9113
-15.700	-0.249	0.884	-0.062	1505	9120
-15.429	-0.245	0.886	-0.065	1505	9126
-15.310	-0.239	0.871	-0.071	1504	9134
-14.583	-0.233	0.895	-0.068	1503	9140
-14.458	-0.235	0.911	-0.055	1502	9147
-14.138	-0.233	0.926	-0.039	1500	9153
-14.340	-0.242	0.947	-0.014	1497	9160
-13.336	-0.229	0.964	-0.017	1494	9166
-11.806	-0.208	0.995	-0.006	1489	9174
-12.333	-0.227	1.036	-0.016	1482	9181
-11.845	-0.229	1.089	0.038	1476	9187
-11.564	-0.217	1.060	-0.003	1473	9194
-12.524	-0.242	1.090	0.029	1472	9200
-13.778	-0.274	1.117	0.064	1471	9207
-14.447	-0.278	1.080	0.023	1473	9213
-14.659	-0.284	1.086	0.030	1481	9221
-15.247	-0.290	1.063	0.035	1490	9228
-15.312	-0.288	1.052	0.030	1496	9234
-15.082	-0.280	1.040	-0.001	1502	9241
-16.106	-0.298	1.031	0.024	1508	9247
-15.339	-0.278	1.015	-0.001	1514	9254
-16.087	-0.282	0.979	-0.014	1519	9261
-15.779	-0.272	0.964	-0.025	1524	9268
-15.759	-0.271	0.962	-0.017	1526	9275
-16.109	-0.276	0.956	-0.041	1529	9281
-16.308	-0.277	0.946	-0.056	1531	9288
-16.071	-0.274	0.951	-0.051	1532	9294
-15.897	-0.272	0.956	-0.034	1532	9302
-15.767	-0.271	0.961	-0.033	1531	9308
-16.355	-0.278	0.947	-0.047	1531	9315
-16.111	-0.274	0.949	-0.039	1532	9321
-16.259	-0.277	0.949	-0.058	1536	9328
-16.854	-0.282	0.929	-0.073	1537	9335
-16.923	-0.281	0.921	-0.080	1535	9341
-17.314	-0.289	0.926	-0.053	1534	9349
-17.439	-0.289	0.919	-0.048	1533	9355
-17.933	-0.297	0.916	-0.049	1531	9362
-17.750	-0.294	0.917	-0.049	1530	9368
-17.416	-0.293	0.933	-0.050	1528	9375
-16.777	-0.283	0.938	-0.041	1527	9382
-16.493	-0.281	0.949	-0.036	1525	9389
-16.407	-0.282	0.958	-0.030	1524	9396
-16.403	-0.284	0.965	-0.031	1522	9402
-16.563	-0.287	0.965	-0.032	1521	9409
-17.391	-0.305	0.973	-0.018	1519	9415
-17.149	-0.299	0.968	-0.035	1518	9422
-17.003	-0.298	0.974	-0.029	1518	9428
-17.172	-0.304	0.982	-0.028	1517	9436
-17.679	-0.309	0.968	-0.028	1517	9443
-16.905	-0.297	0.977	-0.022	1517	9449
-16.598	-0.290	0.973	-0.027	1516	9456
-16.666	-0.293	0.979	-0.014	1516	9462
-15.880	-0.279	0.981	-0.026	1515	9469
-15.381	-0.272	0.990	-0.020	1515	9476
-14.952	-0.264	0.987	-0.012	1514	9483
-15.003	-0.269	1.002	-0.015	1513	9490
-14.723	-0.261	0.992	-0.014	1512	9496
-14.860	-0.261	0.982	-0.023	1513	9503
-14.820	-0.259	0.978	-0.033	1514	9509
-14.643	-0.259	0.990	-0.020	1515	9517
-14.820	-0.259	0.978	-0.033	1516	9523
-15.515	-0.268	0.963	-0.044	1517	9530
-15.486	-0.265	0.953	-0.063	1517	9537
-16.131	-0.274	0.947	-0.054	1517	9543
-15.872	-0.270	0.945	-0.070	1517	9550
-15.954	-0.271	0.947	-0.067	1517	9556
-15.713	-0.269	0.952	-0.068	1516	9564
-15.792	-0.270	0.951	-0.060	1516	9570
-15.821	-0.271	0.956	-0.063	1515	9577
-15.641	-0.268	0.953	-0.070	1515	9584
-15.721	-0.270	0.955	-0.068	1514	9590
-15.783	-0.270	0.951	-0.067	1513	9597
-16.260	-0.279	0.955	-0.069	1512	9604
-16.542	-0.283	0.951	-0.066	1511	9611
-16.657	-0.286	0.954	-0.065	1510	9617
-16.543	-0.286	0.962	-0.052	1509	9624
-16.440	-0.284	0.961	-0.064	1509	9631
-16.312	-0.283	0.966	-0.061	1509	9637
-15.652	-0.277	0.987	-0.071	1509	9645
-15.471	-0.274	0.989	-0.066	1510	9651
-15.407	-0.272	0.986	-0.068	1509	9658
-15.028	-0.266	0.986	-0.078	1509	9664
-15.063	-0.268	0.992	-0.063	1509	9671
-15.096	-0.263	0.970	-0.090	1510	9678
-14.902	-0.259	0.968	-0.096	1510	9684
-15.302	-0.267	0.971	-0.085	1509	9692
-16.542	-0.285	0.955	-0.098	1507	9698
-16.812	-0.288	0.949	-0.090	1504	9705
-17.265	-0.299	0.957	-0.093	1503	9711
-17.087	-0.297	0.961	-0.097	1502	9718
-17.101	-0.295	0.953	-0.103	1502	9724
-16.167	-0.280	0.961	-0.106	1502	9732
-15.638	-0.273	0.972	-0.101	1502	9739
-14.876	-0.260	0.972	-0.110	1502	9745
-14.579	-0.255	0.974	-0.111	1500	9752
-14.551	-0.256	0.979	-0.119	1498	9758
-14.709	-0.257	0.970	-0.130	1499	9765
-14.756	-0.258	0.971	-0.126	1498	9772
-15.494	-0.270	0.964	-0.128	1497	9779
-16.082	-0.276	0.950	-0.127	1496	9786
-16.173	-0.279	0.954	-0.131	1495	9792
-16.157	-0.278	0.950	-0.142	1495	9799
-15.804	-0.270	0.942	-0.137	1496	9805
-15.972	-0.272	0.942	-0.135	1495	9812
-15.527	-0.267	0.949	-0.141	1494	9819
-15.440	-0.264	0.943	-0.146	1494	9826
-15.502	-0.264	0.939	-0.146	1494	9833
-15.862	-0.271	0.944	-0.146	1494	9839
-15.742	-0.267	0.934	-0.151	1493	9846
-15.968	-0.273	0.944	-0.146	1493	9852
-16.764	-0.284	0.931	-0.154	1492	9860
-17.133	-0.292	0.935	-0.154	1492	9866
-17.040	-0.291	0.936	-0.162	1490	9873
-17.290	-0.296	0.938	-0.157	1487	9880
-17.307	-0.298	0.942	-0.160	1487	9886
-17.312	-0.300	0.950	-0.149	1487	9893
-17.010	-0.297	0.959	-0.148	1487	9900
-16.131	-0.308	1.055	-0.138	1487	9907
-8.899	-0.154	0.985	-0.014	1487	9913
-20.524	-0.368	0.900	-0.396	1486	9920
-17.379	-0.292	0.933	-0.024	1486	9927
-16.698	-0.299	0.967	-0.240	1489	9933
-16.483	-0.290	0.975	-0.104	1493	9940
-17.512	-0.313	0.979	-0.172	1491	9947
-17.519	-0.314	0.986	-0.140	1488	9954
-17.804	-0.323	0.996	-0.145	1487	9960
-18.150	-0.329	0.994	-0.140	1490	9967
-17.601	-0.321	1.001	-0.154	1496	9974
-18.749	-0.340	0.989	-0.154	1499	9980
-18.205	-0.337	1.011	-0.167	1505	9988
-19.169	-0.344	0.977	-0.155	1512	9994
-18.435	-0.331	0.982	-0.146	1511	10001
-18.228	-0.328	0.987	-0.134	1510	10007
-18.305	-0.326	0.977	-0.136	1508	10014
-18.329	-0.329	0.983	-0.141	1519	10021
-18.453	-0.328	0.975	-0.131	1549	10028
-18.614	-0.338	0.994	-0.135	1548	10035
-18.738	-0.351	1.024	-0.137	1541	10042
-19.429	-0.362	1.019	-0.133	1535	10048
-22.683	-0.406	0.962	-0.140	1528	10055
-16.069	-0.345	1.194	-0.076	1523	10061
-23.501	-0.502	1.147	-0.126	1520	10068
-18.921	-0.401	1.160	-0.158	1520	10076
-19.597	-0.416	1.159	-0.147	1523	10082
-20.080	-0.412	1.118	-0.144	1527	10089
-19.956	-0.406	1.110	-0.138	1531	10095
-19.723	-0.396	1.095	-0.137	1534	10102
-19.418	-0.379	1.064	-0.149	1538	10109
-19.925	-0.380	1.038	-0.144	1540	10116
-20.391	-0.385	1.022	-0.161	1540	10123
-21.038	-0.389	0.998	-0.158	1542	10130
-21.653	-0.393	0.979	-0.143	1542	10136
-22.249	-0.401	0.969	-0.155	1543	10143
-22.401	-0.402	0.963	-0.160	1547	10149
-22.921	-0.402	0.935	-0.179	1554	10157
-23.847	-0.405	0.900	-0.173	1560	10164
-25.619	-0.418	0.854	-0.177	1572	10170
-26.378	-0.434	0.856	-0.176	1575	10177
-28.103	-0.509	0.938	-0.170	1576	10183
-25.034	-0.451	0.951	-0.169	1576	10190
-25.355	-0.446	0.928	-0.162	1574	10198
-25.794	-0.451	0.918	-0.170	1571	10204
-26.532	-0.456	0.894	-0.189	1569	10211
-27.657	-0.472	0.875	-0.211	1567	10217
-28.480	-0.485	0.865	-0.228	1565	10224
-28.878	-0.494	0.862	-0.243	1561	10231
-29.779	-0.506	0.848	-0.251	1560	10237
-30.027	-0.507	0.845	-0.235	1556	10245
-30.532	-0.516	0.843	-0.232	1554	10252
-31.133	-0.521	0.833	-0.221	1551	10258